BEGIN_SCAN_DATA
	FORMAT=CC-Export V1.9                  
	FILE_CREATION_DATE=06-Apr-2018 16:02:56
	LAST_MODIFIED=06-Apr-2018 16:02:56
	BEGIN_SCAN  1
		TASK_NAME=tba PDD Profiles
		PROGRAM=tbaScan
		MEAS_DATE=06-Apr-2018 15:36:30
		LINAC=MIRAGE
		MODALITY=X
		ISOCENTER=1000.00
		INPLANE_AXIS=Inplane
		CROSSPLANE_AXIS=Crossplane
		DEPTH_AXIS=Depth
		INPLANE_AXIS_DIR=GUN_TARGET
		CROSSPLANE_AXIS_DIR=LEFT_RIGHT
		DEPTH_AXIS_DIR=UP_DOWN
		ENERGY=6.00
		NOMINAL_DMAX=16.00
		SSD=1000.00
		SCD=450.00
		BLOCK=0
		WEDGE_ANGLE=0.00
		FIELD_INPLANE=300.00
		FIELD_CROSSPLANE=300.00
		FIELD_TYPE=RECTANGULAR
		GANTRY=0.00
		GANTRY_UPRIGHT_POSITION=0
		GANTRY_ROTATION=CW
		COLL_ANGLE=0.00
		COLL_OFFSET_INPLANE=0.00
		COLL_OFFSET_CROSSPLANE=0.00
		SCAN_DEVICE=MP3
		SCAN_DEVICE_SETUP=BARA_LEFT_RIGHT
		ELECTROMETER=TANDEM
		RANGE_FIELD=AUTO
		RANGE_REFERENCE=AUTO
		DETECTOR=THIMBLE_CHAMBER
		DETECTOR_SUBCODE=SEMIFLEX
		DETECTOR_RADIUS=2.75
		DETECTOR_NAME=PTW 31010 Semiflex
		DETECTOR_SN=4351
		DETECTOR_CALIBRATION=300000000.00
		DETECTOR_IS_CALIBRATED=0
		DETECTOR_REFERENCE=THIMBLE_CHAMBER
		DETECTOR_REFERENCE_SUBCODE=SEMIFLEX
		DETECTOR_REFERENCE_RADIUS=2.75
		DETECTOR_REFERENCE_NAME=PTW 31010 Semiflex
		DETECTOR_REFERENCE_SN=4311
		DETECTOR_REFERENCE_IS_CALIBRATED=0
		DETECTOR_REFERENCE_CALIBRATION=300000000.00
		DETECTOR_HV=-400.0
		DETECTOR_REFERENCE_HV=-400.0
		FILTER=FF
		REF_FIELD_DEPTH=0.00
		REF_FIELD_DEFINED=WATER_SURFACE
		REF_FIELD_INPLANE=100.00
		REF_FIELD_CROSSPLANE=100.00
		REF_SCAN_POSITIONS=-5.00;-4.00;-3.00;-2.00;-1.00;0.00;1.50;3.00;4.50;6.00;7.50;9.00;10.50;12.00;13.50;15.00;16.50;18.00;19.50;20.00;25.00;30.00;35.00;40.00;45.00;50.00;60.00;70.00;80.00;90.00;100.00;110.00;120.00;130.00;140.00;150.00;160.00;170.00;180.00;190.00;200.00;210.00;220.00;230.00;240.00;250.00;260.00;270.00;280.00;290.00;300.00;
		SCAN_CURVETYPE=PDD
		SCAN_OFFAXIS_INPLANE=0.00
		SCAN_OFFAXIS_CROSSPLANE=0.00
		SCAN_ANGLE=0.00
		SCAN_DIAGONAL=NOT_DIAGONAL
		SCAN_DIRECTION=NEGATIVE
		MEAS_MEDIUM=WATER
		MEAS_PRESET=REFERENCE_DOSEMETER
		MEAS_TIME=0.700
		MEAS_UNIT=A.U.
		SCAN_SPEEDS=50.00; 10.00;150.00; 20.00;999.00; 50.00;
		DELAY_TIMES=50.00; 0.500;150.00; 0.200;999.90; 0.000;
		PRESSURE=1013.25
		TEMPERATURE=20.00
		NORM_TEMPERATURE=20.00
		CORRECTION_FACTOR=1.0000
		EXPECTED_MAX_DOSE_RATE=3.00
		BEGIN_DATA
			-5.00		1.0570E+00		3.6648E+00
			-4.00		1.0634E+00		3.6648E+00
			-3.00		1.0742E+00		3.6630E+00
			-2.00		1.0899E+00		3.6648E+00
			-1.00		1.1144E+00		3.6666E+00
			0.00		1.1514E+00		3.6630E+00
			1.50		1.2342E+00		3.6666E+00
			3.00		1.3817E+00		3.6594E+00
			4.50		1.5420E+00		3.6630E+00
			6.00		1.6354E+00		3.6630E+00
			7.50		1.6889E+00		3.6630E+00
			9.00		1.7214E+00		3.6630E+00
			10.50		1.7391E+00		3.6630E+00
			12.00		1.7456E+00		3.6648E+00
			13.50		1.7474E+00		3.6630E+00
			15.00		1.7450E+00		3.6630E+00
			16.50		1.7409E+00		3.6612E+00
			18.00		1.7304E+00		3.6648E+00
			19.50		1.7258E+00		3.6630E+00
			20.00		1.7219E+00		3.6630E+00
			25.00		1.6914E+00		3.6630E+00
			30.00		1.6614E+00		3.6630E+00
			35.00		1.6300E+00		3.6630E+00
			40.00		1.5978E+00		3.6612E+00
			45.00		1.5646E+00		3.6666E+00
			50.00		1.5354E+00		3.6648E+00
			60.00		1.4725E+00		3.6648E+00
			70.00		1.4128E+00		3.6630E+00
			80.00		1.3531E+00		3.6648E+00
			90.00		1.2953E+00		3.6630E+00
			100.00		1.2376E+00		3.6666E+00
			110.00		1.1853E+00		3.6612E+00
			120.00		1.1306E+00		3.6666E+00
			130.00		1.0795E+00		3.6666E+00
			140.00		1.0314E+00		3.6648E+00
			150.00		985.75E-03		3.6630E+00
			160.00		938.14E-03		3.6666E+00
			170.00		896.26E-03		3.6612E+00
			180.00		854.05E-03		3.6630E+00
			190.00		813.76E-03		3.6630E+00
			200.00		775.05E-03		3.6648E+00
			210.00		738.70E-03		3.6648E+00
			220.00		703.69E-03		3.6630E+00
			230.00		671.58E-03		3.6612E+00
			240.00		638.82E-03		3.6630E+00
			250.00		609.14E-03		3.6612E+00
			260.00		579.65E-03		3.6612E+00
			270.00		550.59E-03		3.6648E+00
			280.00		524.07E-03		3.6648E+00
			290.00		500.49E-03		3.6612E+00
			300.00		476.50E-03		3.6612E+00
		END_DATA
	END_SCAN  1
	BEGIN_SCAN  2
		TASK_NAME=tba PDD Profiles
		PROGRAM=tbaScan
		MEAS_DATE=06-Apr-2018 15:36:30
		LINAC=MIRAGE
		MODALITY=X
		ISOCENTER=1000.00
		INPLANE_AXIS=Inplane
		CROSSPLANE_AXIS=Crossplane
		DEPTH_AXIS=Depth
		INPLANE_AXIS_DIR=GUN_TARGET
		CROSSPLANE_AXIS_DIR=LEFT_RIGHT
		DEPTH_AXIS_DIR=UP_DOWN
		ENERGY=6.00
		NOMINAL_DMAX=16.00
		SSD=1000.00
		SCD=450.00
		BLOCK=0
		WEDGE_ANGLE=0.00
		FIELD_INPLANE=300.00
		FIELD_CROSSPLANE=300.00
		FIELD_TYPE=RECTANGULAR
		GANTRY=0.00
		GANTRY_UPRIGHT_POSITION=0
		GANTRY_ROTATION=CW
		COLL_ANGLE=0.00
		COLL_OFFSET_INPLANE=0.00
		COLL_OFFSET_CROSSPLANE=0.00
		SCAN_DEVICE=MP3
		SCAN_DEVICE_SETUP=BARA_LEFT_RIGHT
		ELECTROMETER=TANDEM
		RANGE_FIELD=AUTO
		RANGE_REFERENCE=AUTO
		DETECTOR=THIMBLE_CHAMBER
		DETECTOR_SUBCODE=SEMIFLEX
		DETECTOR_RADIUS=2.75
		DETECTOR_NAME=PTW 31010 Semiflex
		DETECTOR_SN=4351
		DETECTOR_CALIBRATION=300000000.00
		DETECTOR_IS_CALIBRATED=0
		DETECTOR_REFERENCE=THIMBLE_CHAMBER
		DETECTOR_REFERENCE_SUBCODE=SEMIFLEX
		DETECTOR_REFERENCE_RADIUS=2.75
		DETECTOR_REFERENCE_NAME=PTW 31010 Semiflex
		DETECTOR_REFERENCE_SN=4311
		DETECTOR_REFERENCE_IS_CALIBRATED=0
		DETECTOR_REFERENCE_CALIBRATION=300000000.00
		DETECTOR_HV=-400.0
		DETECTOR_REFERENCE_HV=-400.0
		FILTER=FF
		REF_FIELD_DEPTH=0.00
		REF_FIELD_DEFINED=WATER_SURFACE
		REF_FIELD_INPLANE=100.00
		REF_FIELD_CROSSPLANE=100.00
		REF_SCAN_POSITIONS=-80.00;-75.00;-70.00;-65.00;-60.00;-59.50;-58.00;-56.50;-55.00;-53.50;-52.00;-50.50;-49.00;-47.50;-46.00;-44.50;-43.00;-41.50;-40.00;-35.00;-30.00;-25.00;-20.00;-15.00;-10.00;-5.00;0.00;5.00;10.00;15.00;20.00;25.00;30.00;35.00;40.00;41.50;43.00;44.50;46.00;47.50;49.00;50.50;52.00;53.50;55.00;56.50;58.00;59.50;60.00;65.00;70.00;75.00;80.00;
		REF_OVERSCAN_FACTOR=1.00
		SCAN_CURVETYPE=INPLANE_PROFILE
		SCAN_DEPTH=16.00
		SCAN_OFFAXIS_INPLANE=0.00
		SCAN_OFFAXIS_CROSSPLANE=0.00
		SCAN_ANGLE=0.00
		SCAN_DIAGONAL=NOT_DIAGONAL
		SCAN_DIRECTION=POSITIVE
		MEAS_MEDIUM=WATER
		MEAS_PRESET=REFERENCE_DOSEMETER
		MEAS_TIME=0.700
		MEAS_UNIT=A.U.
		SCAN_SPEEDS=50.00; 10.00;150.00; 20.00;999.00; 50.00;
		DELAY_TIMES=50.00; 0.500;150.00; 0.200;999.90; 0.000;
		PRESSURE=1013.25
		TEMPERATURE=20.00
		NORM_TEMPERATURE=20.00
		CORRECTION_FACTOR=1.0000
		EXPECTED_MAX_DOSE_RATE=3.00
		BEGIN_DATA
			-182.88		113.96E-03		3.6630E+00
			-177.80		124.10E-03		3.6594E+00
			-172.72		135.38E-03		3.6630E+00
			-167.64		148.26E-03		3.6630E+00
			-162.56		168.01E-03		3.6630E+00
			-162.05		171.06E-03		3.6630E+00
			-160.53		183.78E-03		3.6612E+00
			-159.00		204.32E-03		3.6648E+00
			-157.48		244.62E-03		3.6630E+00
			-155.96		338.78E-03		3.6666E+00
			-154.43		543.45E-03		3.6666E+00
			-152.91		847.17E-03		3.6630E+00
			-151.38		1.1832E+00		3.6648E+00
			-149.86		1.4673E+00		3.6630E+00
			-148.34		1.6432E+00		3.6630E+00
			-146.81		1.7195E+00		3.6648E+00
			-145.29		1.7520E+00		3.6648E+00
			-143.76		1.7704E+00		3.6612E+00
			-142.24		1.7784E+00		3.6630E+00
			-137.16		1.7922E+00		3.6648E+00
			-132.08		1.7991E+00		3.6648E+00
			-127.00		1.8048E+00		3.6612E+00
			-121.92		1.8059E+00		3.6630E+00
			-116.84		1.8069E+00		3.6630E+00
			-111.76		1.8074E+00		3.6630E+00
			-106.68		1.8074E+00		3.6630E+00
			-101.60		1.8064E+00		3.6630E+00
			-96.52		1.8072E+00		3.6594E+00
			-91.44		1.8035E+00		3.6648E+00
			-86.36		1.8026E+00		3.6648E+00
			-81.28		1.8025E+00		3.6630E+00
			-76.20		1.8000E+00		3.6630E+00
			-71.12		1.7994E+00		3.6612E+00
			-66.04		1.7961E+00		3.6630E+00
			-60.96		1.7922E+00		3.6648E+00
			-55.88		1.7912E+00		3.6630E+00
			-50.80		1.7867E+00		3.6630E+00
			-45.72		1.7819E+00		3.6648E+00
			-40.64		1.7746E+00		3.6648E+00
			-35.56		1.7652E+00		3.6648E+00
			-30.48		1.7623E+00		3.6648E+00
			-25.40		1.7627E+00		3.6630E+00
			-20.32		1.7602E+00		3.6630E+00
			-15.24		1.7548E+00		3.6630E+00
			-10.16		1.7477E+00		3.6666E+00
			-5.08		1.7448E+00		3.6612E+00
			0.00		1.7430E+00		3.6630E+00
			5.08		1.7450E+00		3.6630E+00
			10.16		1.7498E+00		3.6612E+00
			15.24		1.7534E+00		3.6648E+00
			20.32		1.7570E+00		3.6666E+00
			25.40		1.7595E+00		3.6666E+00
			30.48		1.7627E+00		3.6630E+00
			35.56		1.7679E+00		3.6612E+00
			40.64		1.7736E+00		3.6648E+00
			45.72		1.7838E+00		3.6630E+00
			50.80		1.7872E+00		3.6630E+00
			55.88		1.7920E+00		3.6612E+00
			60.96		1.7969E+00		3.6594E+00
			66.04		1.7979E+00		3.6612E+00
			71.12		1.8004E+00		3.6612E+00
			76.20		1.8015E+00		3.6630E+00
			81.28		1.8038E+00		3.6612E+00
			86.36		1.8062E+00		3.6594E+00
			91.44		1.8086E+00		3.6576E+00
			96.52		1.8064E+00		3.6630E+00
			101.60		1.8078E+00		3.6612E+00
			106.68		1.8088E+00		3.6612E+00
			111.76		1.8101E+00		3.6594E+00
			116.84		1.8079E+00		3.6630E+00
			121.92		1.8059E+00		3.6630E+00
			127.00		1.8026E+00		3.6648E+00
			132.08		1.7986E+00		3.6648E+00
			137.16		1.7922E+00		3.6648E+00
			142.24		1.7741E+00		3.6648E+00
			143.76		1.7631E+00		3.6630E+00
			145.29		1.7402E+00		3.6648E+00
			146.81		1.6919E+00		3.6630E+00
			148.34		1.5676E+00		3.6630E+00
			149.86		1.3289E+00		3.6612E+00
			151.38		1.0093E+00		3.6648E+00
			152.91		679.76E-03		3.6648E+00
			154.43		424.03E-03		3.6630E+00
			155.96		282.25E-03		3.6612E+00
			157.48		221.44E-03		3.6612E+00
			159.00		192.24E-03		3.6630E+00
			160.53		175.93E-03		3.6648E+00
			162.05		165.72E-03		3.6648E+00
			162.56		163.11E-03		3.6648E+00
			167.64		145.11E-03		3.6630E+00
			172.72		132.68E-03		3.6630E+00
			177.80		121.86E-03		3.6648E+00
			182.88		111.94E-03		3.6630E+00
		END_DATA
	END_SCAN  2
	BEGIN_SCAN  3
		TASK_NAME=tba PDD Profiles
		PROGRAM=tbaScan
		MEAS_DATE=06-Apr-2018 15:36:30
		LINAC=MIRAGE
		MODALITY=X
		ISOCENTER=1000.00
		INPLANE_AXIS=Inplane
		CROSSPLANE_AXIS=Crossplane
		DEPTH_AXIS=Depth
		INPLANE_AXIS_DIR=GUN_TARGET
		CROSSPLANE_AXIS_DIR=LEFT_RIGHT
		DEPTH_AXIS_DIR=UP_DOWN
		ENERGY=6.00
		NOMINAL_DMAX=16.00
		SSD=1000.00
		SCD=450.00
		BLOCK=0
		WEDGE_ANGLE=0.00
		FIELD_INPLANE=300.00
		FIELD_CROSSPLANE=300.00
		FIELD_TYPE=RECTANGULAR
		GANTRY=0.00
		GANTRY_UPRIGHT_POSITION=0
		GANTRY_ROTATION=CW
		COLL_ANGLE=0.00
		COLL_OFFSET_INPLANE=0.00
		COLL_OFFSET_CROSSPLANE=0.00
		SCAN_DEVICE=MP3
		SCAN_DEVICE_SETUP=BARA_LEFT_RIGHT
		ELECTROMETER=TANDEM
		RANGE_FIELD=AUTO
		RANGE_REFERENCE=AUTO
		DETECTOR=THIMBLE_CHAMBER
		DETECTOR_SUBCODE=SEMIFLEX
		DETECTOR_RADIUS=2.75
		DETECTOR_NAME=PTW 31010 Semiflex
		DETECTOR_SN=4351
		DETECTOR_CALIBRATION=300000000.00
		DETECTOR_IS_CALIBRATED=0
		DETECTOR_REFERENCE=THIMBLE_CHAMBER
		DETECTOR_REFERENCE_SUBCODE=SEMIFLEX
		DETECTOR_REFERENCE_RADIUS=2.75
		DETECTOR_REFERENCE_NAME=PTW 31010 Semiflex
		DETECTOR_REFERENCE_SN=4311
		DETECTOR_REFERENCE_IS_CALIBRATED=0
		DETECTOR_REFERENCE_CALIBRATION=300000000.00
		DETECTOR_HV=-400.0
		DETECTOR_REFERENCE_HV=-400.0
		FILTER=FF
		REF_FIELD_DEPTH=0.00
		REF_FIELD_DEFINED=WATER_SURFACE
		REF_FIELD_INPLANE=100.00
		REF_FIELD_CROSSPLANE=100.00
		REF_SCAN_POSITIONS=-80.00;-75.00;-70.00;-65.00;-60.00;-59.50;-58.00;-56.50;-55.00;-53.50;-52.00;-50.50;-49.00;-47.50;-46.00;-44.50;-43.00;-41.50;-40.00;-35.00;-30.00;-25.00;-20.00;-15.00;-10.00;-5.00;0.00;5.00;10.00;15.00;20.00;25.00;30.00;35.00;40.00;41.50;43.00;44.50;46.00;47.50;49.00;50.50;52.00;53.50;55.00;56.50;58.00;59.50;60.00;65.00;70.00;75.00;80.00;
		REF_OVERSCAN_FACTOR=1.00
		SCAN_CURVETYPE=CROSSPLANE_PROFILE
		SCAN_DEPTH=16.00
		SCAN_OFFAXIS_INPLANE=0.00
		SCAN_OFFAXIS_CROSSPLANE=0.00
		SCAN_ANGLE=0.00
		SCAN_DIAGONAL=NOT_DIAGONAL
		SCAN_DIRECTION=POSITIVE
		MEAS_MEDIUM=WATER
		MEAS_PRESET=REFERENCE_DOSEMETER
		MEAS_TIME=0.700
		MEAS_UNIT=A.U.
		SCAN_SPEEDS=50.00; 10.00;150.00; 20.00;999.00; 50.00;
		DELAY_TIMES=50.00; 0.500;150.00; 0.200;999.90; 0.000;
		PRESSURE=1013.25
		TEMPERATURE=20.00
		NORM_TEMPERATURE=20.00
		CORRECTION_FACTOR=1.0000
		EXPECTED_MAX_DOSE_RATE=3.00
		BEGIN_DATA
			-182.88		87.139E-03		3.6810E+00
			-177.80		98.924E-03		3.6792E+00
			-172.72		112.73E-03		3.6774E+00
			-167.64		129.16E-03		3.6792E+00
			-162.56		153.26E-03		3.6738E+00
			-162.05		156.51E-03		3.6792E+00
			-160.53		172.83E-03		3.6774E+00
			-159.00		203.77E-03		3.6774E+00
			-157.48		270.68E-03		3.6774E+00
			-155.96		417.43E-03		3.6774E+00
			-154.43		647.40E-03		3.6756E+00
			-152.91		942.79E-03		3.6810E+00
			-151.38		1.2550E+00		3.6774E+00
			-149.86		1.5167E+00		3.6756E+00
			-148.34		1.6676E+00		3.6774E+00
			-146.81		1.7335E+00		3.6738E+00
			-145.29		1.7597E+00		3.6774E+00
			-143.76		1.7720E+00		3.6792E+00
			-142.24		1.7826E+00		3.6756E+00
			-137.16		1.7953E+00		3.6756E+00
			-132.08		1.8002E+00		3.6756E+00
			-127.00		1.8044E+00		3.6720E+00
			-121.92		1.8055E+00		3.6738E+00
			-116.84		1.8092E+00		3.6702E+00
			-111.76		1.8094E+00		3.6738E+00
			-106.68		1.8099E+00		3.6738E+00
			-101.60		1.8112E+00		3.6702E+00
			-96.52		1.8116E+00		3.6684E+00
			-91.44		1.8088E+00		3.6720E+00
			-86.36		1.8092E+00		3.6702E+00
			-81.28		1.8086E+00		3.6684E+00
			-76.20		1.8063E+00		3.6702E+00
			-71.12		1.8052E+00		3.6684E+00
			-66.04		1.8019E+00		3.6702E+00
			-60.96		1.8008E+00		3.6684E+00
			-55.88		1.7988E+00		3.6684E+00
			-50.80		1.7944E+00		3.6684E+00
			-45.72		1.7875E+00		3.6684E+00
			-40.64		1.7797E+00		3.6684E+00
			-35.56		1.7709E+00		3.6684E+00
			-30.48		1.7681E+00		3.6720E+00
			-25.40		1.7682E+00		3.6648E+00
			-20.32		1.7628E+00		3.6648E+00
			-15.24		1.7574E+00		3.6648E+00
			-10.16		1.7496E+00		3.6666E+00
			-5.08		1.7429E+00		3.6684E+00
			0.00		1.7421E+00		3.6648E+00
			5.08		1.7435E+00		3.6630E+00
			10.16		1.7461E+00		3.6648E+00
			15.24		1.7500E+00		3.6648E+00
			20.32		1.7531E+00		3.6666E+00
			25.40		1.7559E+00		3.6648E+00
			30.48		1.7579E+00		3.6648E+00
			35.56		1.7635E+00		3.6612E+00
			40.64		1.7714E+00		3.6612E+00
			45.72		1.7769E+00		3.6630E+00
			50.80		1.7822E+00		3.6612E+00
			55.88		1.7861E+00		3.6612E+00
			60.96		1.7895E+00		3.6594E+00
			66.04		1.7915E+00		3.6612E+00
			71.12		1.7940E+00		3.6612E+00
			76.20		1.7987E+00		3.6576E+00
			81.28		1.7971E+00		3.6630E+00
			86.36		1.8031E+00		3.6558E+00
			91.44		1.8018E+00		3.6594E+00
			96.52		1.8045E+00		3.6558E+00
			101.60		1.8055E+00		3.6558E+00
			106.68		1.8047E+00		3.6594E+00
			111.76		1.8054E+00		3.6540E+00
			116.84		1.8059E+00		3.6540E+00
			121.92		1.8017E+00		3.6576E+00
			127.00		1.8006E+00		3.6558E+00
			132.08		1.7986E+00		3.6558E+00
			137.16		1.7936E+00		3.6540E+00
			142.24		1.7766E+00		3.6576E+00
			143.76		1.7660E+00		3.6540E+00
			145.29		1.7430E+00		3.6558E+00
			146.81		1.6934E+00		3.6522E+00
			148.34		1.5694E+00		3.6576E+00
			149.86		1.3640E+00		3.6540E+00
			151.38		1.0783E+00		3.6540E+00
			152.91		763.05E-03		3.6540E+00
			154.43		485.48E-03		3.6558E+00
			155.96		304.93E-03		3.6540E+00
			157.48		226.97E-03		3.6504E+00
			159.00		191.82E-03		3.6522E+00
			160.53		172.51E-03		3.6540E+00
			162.05		160.62E-03		3.6522E+00
			162.56		157.45E-03		3.6504E+00
			167.64		135.78E-03		3.6522E+00
			172.72		120.90E-03		3.6522E+00
			177.80		107.59E-03		3.6504E+00
			182.88		95.764E-03		3.6540E+00
		END_DATA
	END_SCAN  3
	BEGIN_SCAN  4
		TASK_NAME=tba PDD Profiles
		PROGRAM=tbaScan
		MEAS_DATE=06-Apr-2018 15:36:30
		LINAC=MIRAGE
		MODALITY=X
		ISOCENTER=1000.00
		INPLANE_AXIS=Inplane
		CROSSPLANE_AXIS=Crossplane
		DEPTH_AXIS=Depth
		INPLANE_AXIS_DIR=GUN_TARGET
		CROSSPLANE_AXIS_DIR=LEFT_RIGHT
		DEPTH_AXIS_DIR=UP_DOWN
		ENERGY=6.00
		NOMINAL_DMAX=16.00
		SSD=1000.00
		SCD=450.00
		BLOCK=0
		WEDGE_ANGLE=0.00
		FIELD_INPLANE=300.00
		FIELD_CROSSPLANE=300.00
		FIELD_TYPE=RECTANGULAR
		GANTRY=0.00
		GANTRY_UPRIGHT_POSITION=0
		GANTRY_ROTATION=CW
		COLL_ANGLE=0.00
		COLL_OFFSET_INPLANE=0.00
		COLL_OFFSET_CROSSPLANE=0.00
		SCAN_DEVICE=MP3
		SCAN_DEVICE_SETUP=BARA_LEFT_RIGHT
		ELECTROMETER=TANDEM
		RANGE_FIELD=AUTO
		RANGE_REFERENCE=AUTO
		DETECTOR=THIMBLE_CHAMBER
		DETECTOR_SUBCODE=SEMIFLEX
		DETECTOR_RADIUS=2.75
		DETECTOR_NAME=PTW 31010 Semiflex
		DETECTOR_SN=4351
		DETECTOR_CALIBRATION=300000000.00
		DETECTOR_IS_CALIBRATED=0
		DETECTOR_REFERENCE=THIMBLE_CHAMBER
		DETECTOR_REFERENCE_SUBCODE=SEMIFLEX
		DETECTOR_REFERENCE_RADIUS=2.75
		DETECTOR_REFERENCE_NAME=PTW 31010 Semiflex
		DETECTOR_REFERENCE_SN=4311
		DETECTOR_REFERENCE_IS_CALIBRATED=0
		DETECTOR_REFERENCE_CALIBRATION=300000000.00
		DETECTOR_HV=-400.0
		DETECTOR_REFERENCE_HV=-400.0
		FILTER=FF
		REF_FIELD_DEPTH=0.00
		REF_FIELD_DEFINED=WATER_SURFACE
		REF_FIELD_INPLANE=100.00
		REF_FIELD_CROSSPLANE=100.00
		REF_SCAN_POSITIONS=-80.00;-75.00;-70.00;-65.00;-60.00;-59.50;-58.00;-56.50;-55.00;-53.50;-52.00;-50.50;-49.00;-47.50;-46.00;-44.50;-43.00;-41.50;-40.00;-35.00;-30.00;-25.00;-20.00;-15.00;-10.00;-5.00;0.00;5.00;10.00;15.00;20.00;25.00;30.00;35.00;40.00;41.50;43.00;44.50;46.00;47.50;49.00;50.50;52.00;53.50;55.00;56.50;58.00;59.50;60.00;65.00;70.00;75.00;80.00;
		REF_OVERSCAN_FACTOR=1.00
		SCAN_CURVETYPE=INPLANE_PROFILE
		SCAN_DEPTH=50.00
		SCAN_OFFAXIS_INPLANE=0.00
		SCAN_OFFAXIS_CROSSPLANE=0.00
		SCAN_ANGLE=0.00
		SCAN_DIAGONAL=NOT_DIAGONAL
		SCAN_DIRECTION=POSITIVE
		MEAS_MEDIUM=WATER
		MEAS_PRESET=REFERENCE_DOSEMETER
		MEAS_TIME=0.700
		MEAS_UNIT=A.U.
		SCAN_SPEEDS=50.00; 10.00;150.00; 20.00;999.00; 50.00;
		DELAY_TIMES=50.00; 0.500;150.00; 0.200;999.90; 0.000;
		PRESSURE=1013.25
		TEMPERATURE=20.00
		NORM_TEMPERATURE=20.00
		CORRECTION_FACTOR=1.0000
		EXPECTED_MAX_DOSE_RATE=3.00
		BEGIN_DATA
			-189.00		121.00E-03		3.6684E+00
			-183.75		133.17E-03		3.6684E+00
			-178.50		147.01E-03		3.6684E+00
			-173.25		164.06E-03		3.6666E+00
			-168.00		188.91E-03		3.6684E+00
			-167.47		192.73E-03		3.6648E+00
			-165.90		205.80E-03		3.6648E+00
			-164.32		226.02E-03		3.6666E+00
			-162.75		261.54E-03		3.6648E+00
			-161.17		339.30E-03		3.6684E+00
			-159.60		500.98E-03		3.6648E+00
			-158.02		745.58E-03		3.6648E+00
			-156.45		1.0113E+00		3.6684E+00
			-154.88		1.2404E+00		3.6684E+00
			-153.30		1.3827E+00		3.6684E+00
			-151.72		1.4475E+00		3.6684E+00
			-150.15		1.4782E+00		3.6666E+00
			-148.57		1.4963E+00		3.6666E+00
			-147.00		1.5064E+00		3.6684E+00
			-141.75		1.5312E+00		3.6666E+00
			-136.50		1.5462E+00		3.6612E+00
			-131.25		1.5525E+00		3.6684E+00
			-126.00		1.5589E+00		3.6684E+00
			-120.75		1.5623E+00		3.6684E+00
			-115.50		1.5688E+00		3.6648E+00
			-110.25		1.5704E+00		3.6666E+00
			-105.00		1.5719E+00		3.6666E+00
			-99.75		1.5727E+00		3.6648E+00
			-94.50		1.5759E+00		3.6630E+00
			-89.25		1.5754E+00		3.6666E+00
			-84.00		1.5761E+00		3.6648E+00
			-78.75		1.5769E+00		3.6630E+00
			-73.50		1.5764E+00		3.6630E+00
			-68.25		1.5737E+00		3.6648E+00
			-63.00		1.5722E+00		3.6648E+00
			-57.75		1.5717E+00		3.6648E+00
			-52.50		1.5702E+00		3.6648E+00
			-47.25		1.5641E+00		3.6666E+00
			-42.00		1.5614E+00		3.6648E+00
			-36.75		1.5580E+00		3.6612E+00
			-31.50		1.5526E+00		3.6648E+00
			-26.25		1.5516E+00		3.6648E+00
			-21.00		1.5509E+00		3.6630E+00
			-15.75		1.5467E+00		3.6648E+00
			-10.50		1.5417E+00		3.6648E+00
			-5.25		1.5361E+00		3.6666E+00
			0.00		1.5371E+00		3.6630E+00
			5.25		1.5378E+00		3.6648E+00
			10.50		1.5422E+00		3.6648E+00
			15.75		1.5472E+00		3.6612E+00
			21.00		1.5486E+00		3.6648E+00
			26.25		1.5514E+00		3.6630E+00
			31.50		1.5533E+00		3.6630E+00
			36.75		1.5553E+00		3.6630E+00
			42.00		1.5610E+00		3.6612E+00
			47.25		1.5666E+00		3.6630E+00
			52.50		1.5705E+00		3.6630E+00
			57.75		1.5737E+00		3.6612E+00
			63.00		1.5730E+00		3.6630E+00
			68.25		1.5744E+00		3.6630E+00
			73.50		1.5737E+00		3.6648E+00
			78.75		1.5777E+00		3.6612E+00
			84.00		1.5772E+00		3.6612E+00
			89.25		1.5777E+00		3.6612E+00
			94.50		1.5751E+00		3.6648E+00
			99.75		1.5749E+00		3.6630E+00
			105.00		1.5727E+00		3.6648E+00
			110.25		1.5728E+00		3.6612E+00
			115.50		1.5695E+00		3.6630E+00
			120.75		1.5656E+00		3.6630E+00
			126.00		1.5610E+00		3.6612E+00
			131.25		1.5533E+00		3.6630E+00
			136.50		1.5440E+00		3.6630E+00
			141.75		1.5297E+00		3.6630E+00
			147.00		1.5061E+00		3.6594E+00
			148.57		1.4880E+00		3.6666E+00
			150.15		1.4678E+00		3.6630E+00
			151.72		1.4251E+00		3.6630E+00
			153.30		1.3243E+00		3.6630E+00
			154.88		1.1317E+00		3.6630E+00
			156.45		877.58E-03		3.6612E+00
			158.02		610.32E-03		3.6630E+00
			159.60		405.65E-03		3.6648E+00
			161.17		293.32E-03		3.6648E+00
			162.75		241.52E-03		3.6630E+00
			164.32		215.10E-03		3.6594E+00
			165.90		198.82E-03		3.6612E+00
			167.47		187.28E-03		3.6648E+00
			168.00		184.48E-03		3.6648E+00
			173.25		161.28E-03		3.6630E+00
			178.50		144.40E-03		3.6648E+00
			183.75		130.76E-03		3.6630E+00
			189.00		118.62E-03		3.6630E+00
		END_DATA
	END_SCAN  4
	BEGIN_SCAN  5
		TASK_NAME=tba PDD Profiles
		PROGRAM=tbaScan
		MEAS_DATE=06-Apr-2018 15:36:30
		LINAC=MIRAGE
		MODALITY=X
		ISOCENTER=1000.00
		INPLANE_AXIS=Inplane
		CROSSPLANE_AXIS=Crossplane
		DEPTH_AXIS=Depth
		INPLANE_AXIS_DIR=GUN_TARGET
		CROSSPLANE_AXIS_DIR=LEFT_RIGHT
		DEPTH_AXIS_DIR=UP_DOWN
		ENERGY=6.00
		NOMINAL_DMAX=16.00
		SSD=1000.00
		SCD=450.00
		BLOCK=0
		WEDGE_ANGLE=0.00
		FIELD_INPLANE=300.00
		FIELD_CROSSPLANE=300.00
		FIELD_TYPE=RECTANGULAR
		GANTRY=0.00
		GANTRY_UPRIGHT_POSITION=0
		GANTRY_ROTATION=CW
		COLL_ANGLE=0.00
		COLL_OFFSET_INPLANE=0.00
		COLL_OFFSET_CROSSPLANE=0.00
		SCAN_DEVICE=MP3
		SCAN_DEVICE_SETUP=BARA_LEFT_RIGHT
		ELECTROMETER=TANDEM
		RANGE_FIELD=AUTO
		RANGE_REFERENCE=AUTO
		DETECTOR=THIMBLE_CHAMBER
		DETECTOR_SUBCODE=SEMIFLEX
		DETECTOR_RADIUS=2.75
		DETECTOR_NAME=PTW 31010 Semiflex
		DETECTOR_SN=4351
		DETECTOR_CALIBRATION=300000000.00
		DETECTOR_IS_CALIBRATED=0
		DETECTOR_REFERENCE=THIMBLE_CHAMBER
		DETECTOR_REFERENCE_SUBCODE=SEMIFLEX
		DETECTOR_REFERENCE_RADIUS=2.75
		DETECTOR_REFERENCE_NAME=PTW 31010 Semiflex
		DETECTOR_REFERENCE_SN=4311
		DETECTOR_REFERENCE_IS_CALIBRATED=0
		DETECTOR_REFERENCE_CALIBRATION=300000000.00
		DETECTOR_HV=-400.0
		DETECTOR_REFERENCE_HV=-400.0
		FILTER=FF
		REF_FIELD_DEPTH=0.00
		REF_FIELD_DEFINED=WATER_SURFACE
		REF_FIELD_INPLANE=100.00
		REF_FIELD_CROSSPLANE=100.00
		REF_SCAN_POSITIONS=-80.00;-75.00;-70.00;-65.00;-60.00;-59.50;-58.00;-56.50;-55.00;-53.50;-52.00;-50.50;-49.00;-47.50;-46.00;-44.50;-43.00;-41.50;-40.00;-35.00;-30.00;-25.00;-20.00;-15.00;-10.00;-5.00;0.00;5.00;10.00;15.00;20.00;25.00;30.00;35.00;40.00;41.50;43.00;44.50;46.00;47.50;49.00;50.50;52.00;53.50;55.00;56.50;58.00;59.50;60.00;65.00;70.00;75.00;80.00;
		REF_OVERSCAN_FACTOR=1.00
		SCAN_CURVETYPE=CROSSPLANE_PROFILE
		SCAN_DEPTH=50.00
		SCAN_OFFAXIS_INPLANE=0.00
		SCAN_OFFAXIS_CROSSPLANE=0.00
		SCAN_ANGLE=0.00
		SCAN_DIAGONAL=NOT_DIAGONAL
		SCAN_DIRECTION=POSITIVE
		MEAS_MEDIUM=WATER
		MEAS_PRESET=REFERENCE_DOSEMETER
		MEAS_TIME=0.700
		MEAS_UNIT=A.U.
		SCAN_SPEEDS=50.00; 10.00;150.00; 20.00;999.00; 50.00;
		DELAY_TIMES=50.00; 0.500;150.00; 0.200;999.90; 0.000;
		PRESSURE=1013.25
		TEMPERATURE=20.00
		NORM_TEMPERATURE=20.00
		CORRECTION_FACTOR=1.0000
		EXPECTED_MAX_DOSE_RATE=3.00
		BEGIN_DATA
			-189.00		97.311E-03		3.6810E+00
			-183.75		111.01E-03		3.6774E+00
			-178.50		127.51E-03		3.6774E+00
			-173.25		147.68E-03		3.6774E+00
			-168.00		175.95E-03		3.6756E+00
			-167.47		179.74E-03		3.6774E+00
			-165.90		195.89E-03		3.6792E+00
			-164.32		223.19E-03		3.6792E+00
			-162.75		278.45E-03		3.6756E+00
			-161.17		395.44E-03		3.6738E+00
			-159.60		576.11E-03		3.6774E+00
			-158.02		815.87E-03		3.6756E+00
			-156.45		1.0691E+00		3.6720E+00
			-154.88		1.2786E+00		3.6756E+00
			-153.30		1.4032E+00		3.6738E+00
			-151.72		1.4562E+00		3.6774E+00
			-150.15		1.4858E+00		3.6720E+00
			-148.57		1.5000E+00		3.6756E+00
			-147.00		1.5113E+00		3.6756E+00
			-141.75		1.5321E+00		3.6738E+00
			-136.50		1.5446E+00		3.6756E+00
			-131.25		1.5564E+00		3.6684E+00
			-126.00		1.5593E+00		3.6756E+00
			-120.75		1.5654E+00		3.6738E+00
			-115.50		1.5678E+00		3.6774E+00
			-110.25		1.5730E+00		3.6720E+00
			-105.00		1.5750E+00		3.6720E+00
			-99.75		1.5765E+00		3.6720E+00
			-94.50		1.5784E+00		3.6720E+00
			-89.25		1.5807E+00		3.6702E+00
			-84.00		1.5812E+00		3.6702E+00
			-78.75		1.5819E+00		3.6684E+00
			-73.50		1.5807E+00		3.6702E+00
			-68.25		1.5784E+00		3.6720E+00
			-63.00		1.5803E+00		3.6666E+00
			-57.75		1.5772E+00		3.6702E+00
			-52.50		1.5753E+00		3.6702E+00
			-47.25		1.5716E+00		3.6684E+00
			-42.00		1.5645E+00		3.6702E+00
			-36.75		1.5599E+00		3.6684E+00
			-31.50		1.5582E+00		3.6666E+00
			-26.25		1.5545E+00		3.6684E+00
			-21.00		1.5528E+00		3.6666E+00
			-15.75		1.5476E+00		3.6684E+00
			-10.50		1.5447E+00		3.6648E+00
			-5.25		1.5385E+00		3.6666E+00
			0.00		1.5359E+00		3.6648E+00
			5.25		1.5380E+00		3.6666E+00
			10.50		1.5388E+00		3.6684E+00
			15.75		1.5437E+00		3.6648E+00
			21.00		1.5459E+00		3.6630E+00
			26.25		1.5472E+00		3.6648E+00
			31.50		1.5492E+00		3.6612E+00
			36.75		1.5514E+00		3.6630E+00
			42.00		1.5568E+00		3.6630E+00
			47.25		1.5632E+00		3.6594E+00
			52.50		1.5662E+00		3.6594E+00
			57.75		1.5674E+00		3.6612E+00
			63.00		1.5688E+00		3.6612E+00
			68.25		1.5703E+00		3.6612E+00
			73.50		1.5713E+00		3.6612E+00
			78.75		1.5735E+00		3.6594E+00
			84.00		1.5735E+00		3.6594E+00
			89.25		1.5730E+00		3.6594E+00
			94.50		1.5746E+00		3.6558E+00
			99.75		1.5728E+00		3.6576E+00
			105.00		1.5706E+00		3.6594E+00
			110.25		1.5676E+00		3.6594E+00
			115.50		1.5664E+00		3.6576E+00
			120.75		1.5628E+00		3.6558E+00
			126.00		1.5571E+00		3.6576E+00
			131.25		1.5510E+00		3.6558E+00
			136.50		1.5426E+00		3.6558E+00
			141.75		1.5290E+00		3.6576E+00
			147.00		1.5071E+00		3.6558E+00
			148.57		1.4929E+00		3.6558E+00
			150.15		1.4722E+00		3.6558E+00
			151.72		1.4264E+00		3.6558E+00
			153.30		1.3325E+00		3.6540E+00
			154.88		1.1667E+00		3.6594E+00
			156.45		938.45E-03		3.6558E+00
			158.02		686.55E-03		3.6522E+00
			159.60		460.00E-03		3.6540E+00
			161.17		315.40E-03		3.6576E+00
			162.75		248.77E-03		3.6540E+00
			164.32		216.40E-03		3.6540E+00
			165.90		197.68E-03		3.6540E+00
			167.47		184.93E-03		3.6540E+00
			168.00		181.18E-03		3.6540E+00
			173.25		155.25E-03		3.6522E+00
			178.50		136.65E-03		3.6540E+00
			183.75		120.39E-03		3.6540E+00
			189.00		107.29E-03		3.6522E+00
		END_DATA
	END_SCAN  5
	BEGIN_SCAN  6
		TASK_NAME=tba PDD Profiles
		PROGRAM=tbaScan
		MEAS_DATE=06-Apr-2018 15:36:30
		LINAC=MIRAGE
		MODALITY=X
		ISOCENTER=1000.00
		INPLANE_AXIS=Inplane
		CROSSPLANE_AXIS=Crossplane
		DEPTH_AXIS=Depth
		INPLANE_AXIS_DIR=GUN_TARGET
		CROSSPLANE_AXIS_DIR=LEFT_RIGHT
		DEPTH_AXIS_DIR=UP_DOWN
		ENERGY=6.00
		NOMINAL_DMAX=16.00
		SSD=1000.00
		SCD=450.00
		BLOCK=0
		WEDGE_ANGLE=0.00
		FIELD_INPLANE=300.00
		FIELD_CROSSPLANE=300.00
		FIELD_TYPE=RECTANGULAR
		GANTRY=0.00
		GANTRY_UPRIGHT_POSITION=0
		GANTRY_ROTATION=CW
		COLL_ANGLE=0.00
		COLL_OFFSET_INPLANE=0.00
		COLL_OFFSET_CROSSPLANE=0.00
		SCAN_DEVICE=MP3
		SCAN_DEVICE_SETUP=BARA_LEFT_RIGHT
		ELECTROMETER=TANDEM
		RANGE_FIELD=AUTO
		RANGE_REFERENCE=AUTO
		DETECTOR=THIMBLE_CHAMBER
		DETECTOR_SUBCODE=SEMIFLEX
		DETECTOR_RADIUS=2.75
		DETECTOR_NAME=PTW 31010 Semiflex
		DETECTOR_SN=4351
		DETECTOR_CALIBRATION=300000000.00
		DETECTOR_IS_CALIBRATED=0
		DETECTOR_REFERENCE=THIMBLE_CHAMBER
		DETECTOR_REFERENCE_SUBCODE=SEMIFLEX
		DETECTOR_REFERENCE_RADIUS=2.75
		DETECTOR_REFERENCE_NAME=PTW 31010 Semiflex
		DETECTOR_REFERENCE_SN=4311
		DETECTOR_REFERENCE_IS_CALIBRATED=0
		DETECTOR_REFERENCE_CALIBRATION=300000000.00
		DETECTOR_HV=-400.0
		DETECTOR_REFERENCE_HV=-400.0
		FILTER=FF
		REF_FIELD_DEPTH=0.00
		REF_FIELD_DEFINED=WATER_SURFACE
		REF_FIELD_INPLANE=100.00
		REF_FIELD_CROSSPLANE=100.00
		REF_SCAN_POSITIONS=-80.00;-75.00;-70.00;-65.00;-60.00;-59.50;-58.00;-56.50;-55.00;-53.50;-52.00;-50.50;-49.00;-47.50;-46.00;-44.50;-43.00;-41.50;-40.00;-35.00;-30.00;-25.00;-20.00;-15.00;-10.00;-5.00;0.00;5.00;10.00;15.00;20.00;25.00;30.00;35.00;40.00;41.50;43.00;44.50;46.00;47.50;49.00;50.50;52.00;53.50;55.00;56.50;58.00;59.50;60.00;65.00;70.00;75.00;80.00;
		REF_OVERSCAN_FACTOR=1.00
		SCAN_CURVETYPE=INPLANE_PROFILE
		SCAN_DEPTH=100.00
		SCAN_OFFAXIS_INPLANE=0.00
		SCAN_OFFAXIS_CROSSPLANE=0.00
		SCAN_ANGLE=0.00
		SCAN_DIAGONAL=NOT_DIAGONAL
		SCAN_DIRECTION=POSITIVE
		MEAS_MEDIUM=WATER
		MEAS_PRESET=REFERENCE_DOSEMETER
		MEAS_TIME=0.700
		MEAS_UNIT=A.U.
		SCAN_SPEEDS=50.00; 10.00;150.00; 20.00;999.00; 50.00;
		DELAY_TIMES=50.00; 0.500;150.00; 0.200;999.90; 0.000;
		PRESSURE=1013.25
		TEMPERATURE=20.00
		NORM_TEMPERATURE=20.00
		CORRECTION_FACTOR=1.0000
		EXPECTED_MAX_DOSE_RATE=3.00
		BEGIN_DATA
			-198.00		124.79E-03		3.6666E+00
			-192.50		137.85E-03		3.6666E+00
			-187.00		152.75E-03		3.6684E+00
			-181.50		170.44E-03		3.6720E+00
			-176.00		194.95E-03		3.6702E+00
			-175.45		197.89E-03		3.6720E+00
			-173.80		209.38E-03		3.6666E+00
			-172.15		225.40E-03		3.6702E+00
			-170.50		252.16E-03		3.6720E+00
			-168.85		307.65E-03		3.6684E+00
			-167.20		422.07E-03		3.6702E+00
			-165.55		594.41E-03		3.6702E+00
			-163.90		788.41E-03		3.6666E+00
			-162.25		952.38E-03		3.6666E+00
			-160.60		1.0535E+00		3.6666E+00
			-158.95		1.0997E+00		3.6666E+00
			-157.30		1.1227E+00		3.6684E+00
			-155.65		1.1384E+00		3.6684E+00
			-154.00		1.1476E+00		3.6702E+00
			-148.50		1.1722E+00		3.6684E+00
			-143.00		1.1878E+00		3.6702E+00
			-137.50		1.2027E+00		3.6666E+00
			-132.00		1.2119E+00		3.6702E+00
			-126.50		1.2223E+00		3.6684E+00
			-121.00		1.2279E+00		3.6720E+00
			-115.50		1.2339E+00		3.6702E+00
			-110.00		1.2395E+00		3.6684E+00
			-104.50		1.2419E+00		3.6684E+00
			-99.00		1.2469E+00		3.6666E+00
			-93.50		1.2498E+00		3.6684E+00
			-88.00		1.2527E+00		3.6684E+00
			-82.50		1.2537E+00		3.6684E+00
			-77.00		1.2561E+00		3.6684E+00
			-71.50		1.2556E+00		3.6684E+00
			-66.00		1.2577E+00		3.6666E+00
			-60.50		1.2555E+00		3.6702E+00
			-55.00		1.2565E+00		3.6702E+00
			-49.50		1.2552E+00		3.6684E+00
			-44.00		1.2538E+00		3.6666E+00
			-38.50		1.2482E+00		3.6702E+00
			-33.00		1.2466E+00		3.6720E+00
			-27.50		1.2483E+00		3.6684E+00
			-22.00		1.2484E+00		3.6666E+00
			-16.50		1.2458E+00		3.6684E+00
			-11.00		1.2430E+00		3.6666E+00
			-5.50		1.2395E+00		3.6684E+00
			0.00		1.2385E+00		3.6684E+00
			5.50		1.2404E+00		3.6684E+00
			11.00		1.2430E+00		3.6666E+00
			16.50		1.2448E+00		3.6684E+00
			22.00		1.2483E+00		3.6684E+00
			27.50		1.2479E+00		3.6666E+00
			33.00		1.2473E+00		3.6684E+00
